time(s)	Intensity(dB)
0.032	50.70
0.033	50.52
0.034	50.37
0.035	50.34
0.036	50.35
0.037	50.38
0.038	50.47
0.039	50.63
0.040	50.77
0.041	50.89
0.042	51.01
0.043	51.17
0.044	51.29
0.045	51.37
0.046	51.47
0.047	51.60
0.048	51.75
0.049	51.88
0.050	52.01
0.051	52.12
0.052	52.24
0.053	52.37
0.054	52.54
0.055	52.70
0.056	52.83
0.057	52.94
0.058	53.05
0.059	53.13
0.060	53.22
0.061	53.29
0.062	53.37
0.063	53.43
0.064	53.48
0.065	53.52
0.066	53.51
0.067	53.50
0.068	53.52
0.069	53.56
0.070	53.61
0.071	53.67
0.072	53.75
0.073	53.84
0.074	53.93
0.075	53.98
0.076	53.97
0.077	53.95
0.078	53.93
0.079	53.93
0.080	53.92
0.081	53.90
0.082	53.84
0.083	53.75
0.084	53.64
0.085	53.51
0.086	53.35
0.087	53.18
0.088	53.00
0.089	52.84
0.090	52.69
0.091	52.57
0.092	52.48
0.093	52.43
0.094	52.30
0.095	52.16
0.096	52.07
0.097	52.07
0.098	52.14
0.099	52.25
0.100	52.41
0.101	52.58
0.102	52.71
0.103	52.75
0.104	52.72
0.105	52.66
0.106	52.61
0.107	52.56
0.108	52.54
0.109	52.52
0.110	52.46
0.111	52.37
0.112	52.26
0.113	52.18
0.114	52.16
0.115	52.22
0.116	52.33
0.117	52.41
0.118	52.41
0.119	52.38
0.120	52.34
0.121	52.33
0.122	52.40
0.123	52.54
0.124	52.68
0.125	52.83
0.126	52.96
0.127	53.07
0.128	53.16
0.129	53.24
0.130	53.34
0.131	53.49
0.132	53.65
0.133	53.80
0.134	53.97
0.135	54.17
0.136	54.37
0.137	54.57
0.138	54.76
0.139	54.95
0.140	55.14
0.141	55.31
0.142	55.44
0.143	55.55
0.144	55.62
0.145	55.64
0.146	55.64
0.147	55.62
0.148	55.57
0.149	55.50
0.150	55.40
0.151	55.29
0.152	55.17
0.153	54.98
0.154	54.73
0.155	54.45
0.156	54.18
0.157	53.90
0.158	53.66
0.159	53.47
0.160	53.34
0.161	53.27
0.162	53.20
0.163	53.17
0.164	53.16
0.165	53.19
0.166	53.28
0.167	53.40
0.168	53.53
0.169	53.65
0.170	53.77
0.171	53.87
0.172	53.95
0.173	54.02
0.174	54.07
0.175	54.09
0.176	54.09
0.177	54.07
0.178	53.99
0.179	53.85
0.180	53.67
0.181	53.46
0.182	53.23
0.183	53.01
0.184	52.84
0.185	52.70
0.186	52.54
0.187	52.37
0.188	52.14
0.189	51.87
0.190	51.57
0.191	51.28
0.192	51.06
0.193	50.92
0.194	50.85
0.195	50.80
0.196	50.80
0.197	50.86
0.198	50.96
0.199	51.10
0.200	51.27
0.201	51.47
0.202	51.70
0.203	51.93
0.204	52.16
0.205	52.38
0.206	52.60
0.207	52.80
0.208	53.00
0.209	53.21
0.210	53.41
0.211	53.60
0.212	53.75
0.213	53.88
0.214	53.97
0.215	54.04
0.216	54.08
0.217	54.10
0.218	54.12
0.219	54.10
0.220	54.04
0.221	53.96
0.222	53.89
0.223	53.80
0.224	53.70
0.225	53.60
0.226	53.51
0.227	53.44
0.228	53.39
0.229	53.36
0.230	53.35
0.231	53.36
0.232	53.39
0.233	53.43
0.234	53.47
0.235	53.52
0.236	53.56
0.237	53.59
0.238	53.60
0.239	53.60
0.240	53.56
0.241	53.49
0.242	53.39
0.243	53.26
0.244	53.09
0.245	52.87
0.246	52.64
0.247	52.34
0.248	51.99
0.249	51.61
0.250	51.24
0.251	50.87
0.252	50.52
0.253	50.18
0.254	49.85
0.255	49.58
0.256	49.34
0.257	49.15
0.258	49.04
0.259	49.01
0.260	49.07
0.261	49.18
0.262	49.34
0.263	49.56
0.264	49.85
0.265	50.20
0.266	50.57
0.267	50.97
0.268	51.38
0.269	51.78
0.270	52.17
0.271	52.54
0.272	52.90
0.273	53.23
0.274	53.51
0.275	53.74
0.276	53.93
0.277	54.09
0.278	54.20
0.279	54.27
0.280	54.30
0.281	54.28
0.282	54.22
0.283	54.11
0.284	53.97
0.285	53.81
0.286	53.61
0.287	53.40
0.288	53.18
0.289	52.96
0.290	52.75
0.291	52.55
0.292	52.37
0.293	52.20
0.294	52.07
0.295	51.97
0.296	51.92
0.297	51.91
0.298	51.97
0.299	52.08
0.300	52.21
0.301	52.32
0.302	52.40
0.303	52.52
0.304	52.66
0.305	52.83
0.306	53.04
0.307	53.31
0.308	53.57
0.309	53.77
0.310	53.95
0.311	54.10
0.312	54.26
0.313	54.44
0.314	54.62
0.315	54.78
0.316	54.91
0.317	55.00
0.318	55.08
0.319	55.15
0.320	55.20
0.321	55.25
0.322	55.29
0.323	55.33
0.324	55.36
0.325	55.39
0.326	55.42
0.327	55.43
0.328	55.45
0.329	55.43
0.330	55.40
0.331	55.36
0.332	55.30
0.333	55.22
0.334	55.11
0.335	54.96
0.336	54.78
0.337	54.55
0.338	54.28
0.339	53.97
0.340	53.64
0.341	53.31
0.342	52.96
0.343	52.61
0.344	52.28
0.345	51.97
0.346	51.71
0.347	51.50
0.348	51.36
0.349	51.31
0.350	51.33
0.351	51.40
0.352	51.50
0.353	51.63
0.354	51.79
0.355	51.98
0.356	52.19
0.357	52.43
0.358	52.65
0.359	52.85
0.360	53.00
0.361	53.13
0.362	53.22
0.363	53.30
0.364	53.38
0.365	53.45
0.366	53.51
0.367	53.54
0.368	53.56
0.369	53.57
0.370	53.57
0.371	53.54
0.372	53.49
0.373	53.42
0.374	53.32
0.375	53.20
0.376	53.06
0.377	52.92
0.378	52.78
0.379	52.65
0.380	52.51
0.381	52.38
0.382	52.26
0.383	52.18
0.384	52.15
0.385	52.17
0.386	52.22
0.387	52.28
0.388	52.35
0.389	52.44
0.390	52.57
0.391	52.77
0.392	53.01
0.393	53.28
0.394	53.59
0.395	53.87
0.396	54.08
0.397	54.25
0.398	54.40
0.399	54.53
0.400	54.63
0.401	54.71
0.402	54.75
0.403	54.77
0.404	54.76
0.405	54.71
0.406	54.64
0.407	54.54
0.408	54.41
0.409	54.28
0.410	54.15
0.411	54.02
0.412	53.90
0.413	53.79
0.414	53.71
0.415	53.62
0.416	53.53
0.417	53.47
0.418	53.42
0.419	53.38
0.420	53.35
0.421	53.30
0.422	53.22
0.423	53.11
0.424	52.98
0.425	52.82
0.426	52.66
0.427	52.49
0.428	52.32
0.429	52.15
0.430	51.99
0.431	51.86
0.432	51.73
0.433	51.57
0.434	51.35
0.435	51.16
0.436	51.04
0.437	51.01
0.438	51.09
0.439	51.24
0.440	51.45
0.441	51.68
0.442	51.92
0.443	52.15
0.444	52.40
0.445	52.68
0.446	52.95
0.447	53.17
0.448	53.30
0.449	53.37
0.450	53.38
0.451	53.36
0.452	53.31
0.453	53.21
0.454	53.11
0.455	52.99
0.456	52.83
0.457	52.60
0.458	52.28
0.459	51.93
0.460	51.59
0.461	51.23
0.462	50.92
0.463	50.69
0.464	50.54
0.465	50.48
0.466	50.52
0.467	50.63
0.468	50.79
0.469	50.97
0.470	51.20
0.471	51.47
0.472	51.75
0.473	52.04
0.474	52.29
0.475	52.52
0.476	52.73
0.477	52.94
0.478	53.14
0.479	53.35
0.480	53.53
0.481	53.65
0.482	53.72
0.483	53.75
0.484	53.76
0.485	53.78
0.486	53.83
0.487	53.90
0.488	53.99
0.489	54.07
0.490	54.15
0.491	54.21
0.492	54.27
0.493	54.33
0.494	54.40
0.495	54.45
0.496	54.48
0.497	54.48
0.498	54.46
0.499	54.41
0.500	54.35
0.501	54.26
0.502	54.16
0.503	54.03
0.504	53.89
0.505	53.76
0.506	53.63
0.507	53.47
0.508	53.30
0.509	53.12
0.510	52.88
0.511	52.66
0.512	52.49
0.513	52.37
0.514	52.28
0.515	52.21
0.516	52.18
0.517	52.24
0.518	52.33
0.519	52.42
0.520	52.51
0.521	52.58
0.522	52.64
0.523	52.71
0.524	52.78
0.525	52.88
0.526	52.99
0.527	53.10
0.528	53.16
0.529	53.14
0.530	53.05
0.531	52.97
0.532	52.92
0.533	52.86
0.534	52.78
0.535	52.67
0.536	52.57
0.537	52.54
0.538	52.57
0.539	52.61
0.540	52.63
0.541	52.61
0.542	52.50
0.543	52.36
0.544	52.28
0.545	52.23
0.546	52.20
0.547	52.17
0.548	52.14
0.549	52.12
0.550	52.11
0.551	52.11
0.552	52.13
0.553	52.20
0.554	52.29
0.555	52.39
0.556	52.49
0.557	52.59
0.558	52.71
0.559	52.84
0.560	52.97
0.561	53.11
0.562	53.26
0.563	53.41
0.564	53.55
0.565	53.68
0.566	53.77
0.567	53.86
0.568	53.89
0.569	53.88
0.570	53.81
0.571	53.71
0.572	53.57
0.573	53.39
0.574	53.26
0.575	53.12
0.576	52.93
0.577	52.72
0.578	52.58
0.579	52.48
0.580	52.37
0.581	52.27
0.582	52.25
0.583	52.27
0.584	52.32
0.585	52.40
0.586	52.49
0.587	52.59
0.588	52.69
0.589	52.77
0.590	52.82
0.591	52.83
0.592	52.82
0.593	52.79
0.594	52.72
0.595	52.61
0.596	52.48
0.597	52.33
0.598	52.20
0.599	52.05
0.600	51.87
0.601	51.67
0.602	51.51
0.603	51.33
0.604	51.15
0.605	50.96
0.606	50.83
0.607	50.73
0.608	50.60
0.609	50.47
0.610	50.40
0.611	50.42
0.612	50.47
0.613	50.58
0.614	50.62
0.615	50.61
0.616	50.57
0.617	50.46
0.618	50.34
0.619	50.31
0.620	50.36
0.621	50.44
0.622	50.48
0.623	50.51
0.624	50.61
0.625	50.80
0.626	51.03
0.627	51.25
0.628	51.49
0.629	51.74
0.630	51.95
0.631	52.10
0.632	52.20
0.633	52.23
0.634	52.28
0.635	52.31
0.636	52.33
0.637	52.39
0.638	52.43
0.639	52.43
0.640	52.40
0.641	52.38
0.642	52.31
0.643	52.26
0.644	52.29
0.645	52.39
0.646	52.51
0.647	52.60
0.648	52.70
0.649	52.82
0.650	52.95
0.651	53.07
0.652	53.17
0.653	53.26
0.654	53.34
0.655	53.42
0.656	53.48
0.657	53.51
0.658	53.51
0.659	53.52
0.660	53.51
0.661	53.47
0.662	53.45
0.663	53.43
0.664	53.38
0.665	53.31
0.666	53.18
0.667	53.09
0.668	53.00
0.669	52.89
0.670	52.80
0.671	52.71
0.672	52.63
0.673	52.54
0.674	52.42
0.675	52.28
0.676	52.14
0.677	51.99
0.678	51.81
0.679	51.63
0.680	51.44
0.681	51.24
0.682	51.04
0.683	50.85
0.684	50.68
0.685	50.54
0.686	50.45
0.687	50.41
0.688	50.40
0.689	50.43
0.690	50.48
0.691	50.56
0.692	50.64
0.693	50.69
0.694	50.78
0.695	50.89
0.696	51.01
0.697	51.14
0.698	51.27
0.699	51.39
0.700	51.49
0.701	51.56
0.702	51.60
0.703	51.65
0.704	51.71
0.705	51.77
0.706	51.86
0.707	51.95
0.708	52.03
0.709	52.06
0.710	52.07
0.711	52.11
0.712	52.18
0.713	52.26
0.714	52.34
0.715	52.39
0.716	52.44
0.717	52.46
0.718	52.46
0.719	52.46
0.720	52.45
0.721	52.42
0.722	52.37
0.723	52.28
0.724	52.17
0.725	52.05
0.726	51.92
0.727	51.79
0.728	51.64
0.729	51.49
0.730	51.34
0.731	51.21
0.732	51.09
0.733	51.02
0.734	50.98
0.735	50.99
0.736	51.04
0.737	51.13
0.738	51.27
0.739	51.45
0.740	51.63
0.741	51.76
0.742	51.90
0.743	52.05
0.744	52.19
0.745	52.33
0.746	52.46
0.747	52.57
0.748	52.68
0.749	52.77
0.750	52.86
0.751	52.95
0.752	53.04
0.753	53.15
0.754	53.28
0.755	53.43
0.756	53.60
0.757	53.79
0.758	53.99
0.759	54.21
0.760	54.44
0.761	54.66
0.762	54.87
0.763	55.06
0.764	55.22
0.765	55.37
0.766	55.49
0.767	55.57
0.768	55.60
0.769	55.60
0.770	55.55
0.771	55.46
0.772	55.34
0.773	55.18
0.774	55.01
0.775	54.81
0.776	54.58
0.777	54.32
0.778	54.07
0.779	53.82
0.780	53.61
0.781	53.44
0.782	53.32
0.783	53.25
0.784	53.24
0.785	53.30
0.786	53.39
0.787	53.51
0.788	53.66
0.789	53.84
0.790	54.02
0.791	54.21
0.792	54.39
0.793	54.55
0.794	54.68
0.795	54.80
0.796	54.87
0.797	54.91
0.798	54.92
0.799	54.90
0.800	54.85
0.801	54.77
0.802	54.66
0.803	54.52
0.804	54.35
0.805	54.16
0.806	53.98
0.807	53.78
0.808	53.63
0.809	53.51
0.810	53.43
0.811	53.37
0.812	53.30
0.813	53.24
0.814	53.23
0.815	53.28
0.816	53.38
0.817	53.51
0.818	53.65
0.819	53.81
0.820	53.99
0.821	54.17
0.822	54.33
0.823	54.48
0.824	54.62
0.825	54.76
0.826	54.91
0.827	55.06
0.828	55.19
0.829	55.31
0.830	55.43
0.831	55.54
0.832	55.64
0.833	55.75
0.834	55.87
0.835	55.99
0.836	56.08
0.837	56.15
0.838	56.17
0.839	56.16
0.840	56.15
0.841	56.12
0.842	56.09
0.843	56.06
0.844	56.04
0.845	56.02
0.846	55.99
0.847	55.98
0.848	55.96
0.849	55.93
0.850	55.91
0.851	55.90
0.852	55.90
0.853	55.89
0.854	55.87
0.855	55.82
0.856	55.77
0.857	55.68
0.858	55.58
0.859	55.48
0.860	55.37
0.861	55.22
0.862	55.06
0.863	54.87
0.864	54.66
0.865	54.40
0.866	54.10
0.867	53.82
0.868	53.56
0.869	53.33
0.870	53.14
0.871	52.95
0.872	52.71
0.873	52.44
0.874	52.19
0.875	52.01
0.876	51.87
0.877	51.77
0.878	51.70
0.879	51.65
0.880	51.61
0.881	51.61
0.882	51.63
0.883	51.65
0.884	51.68
0.885	51.74
0.886	51.83
0.887	51.95
0.888	52.08
0.889	52.17
0.890	52.19
0.891	52.18
0.892	52.16
0.893	52.14
0.894	52.14
0.895	52.15
0.896	52.17
0.897	52.12
0.898	51.96
0.899	51.76
0.900	51.57
0.901	51.42
0.902	51.32
0.903	51.23
0.904	51.14
0.905	51.04
0.906	50.93
0.907	50.83
0.908	50.75
0.909	50.69
0.910	50.66
0.911	50.69
0.912	50.74
0.913	50.83
0.914	50.93
0.915	51.02
0.916	51.12
0.917	51.21
0.918	51.32
0.919	51.42
0.920	51.50
0.921	51.59
0.922	51.69
0.923	51.77
0.924	51.83
0.925	51.88
0.926	51.92
0.927	51.94
0.928	51.94
0.929	51.92
0.930	51.90
0.931	51.90
0.932	51.91
0.933	51.87
0.934	51.78
0.935	51.65
0.936	51.52
0.937	51.39
0.938	51.24
0.939	51.07
0.940	50.87
0.941	50.64
0.942	50.40
0.943	50.17
0.944	49.93
0.945	49.72
0.946	49.53
0.947	49.39
0.948	49.28
0.949	49.21
0.950	49.15
0.951	49.14
0.952	49.15
0.953	49.19
0.954	49.26
0.955	49.35
0.956	49.48
0.957	49.61
0.958	49.73
0.959	49.79
0.960	49.82
0.961	49.84
0.962	49.85
0.963	49.82
0.964	49.75
0.965	49.66
0.966	49.52
0.967	49.36
0.968	49.23
0.969	49.16
0.970	49.10
0.971	49.00
0.972	48.86
0.973	48.75
0.974	48.66
0.975	48.56
0.976	48.46
0.977	48.38
0.978	48.30
0.979	48.22
0.980	48.15
0.981	48.13
0.982	48.17
0.983	48.25
0.984	48.35
0.985	48.43
0.986	48.50
0.987	48.55
0.988	48.63
0.989	48.77
0.990	48.94
0.991	49.08
0.992	49.22
0.993	49.41
0.994	49.60
0.995	49.80
0.996	50.02
0.997	50.27
0.998	50.56
0.999	50.86
1.000	51.17
1.001	51.49
1.002	51.79
1.003	52.09
1.004	52.36
1.005	52.63
1.006	52.87
1.007	53.09
1.008	53.26
1.009	53.41
1.010	53.51
1.011	53.58
1.012	53.62
1.013	53.61
1.014	53.57
1.015	53.49
1.016	53.38
1.017	53.25
1.018	53.09
1.019	52.92
1.020	52.73
1.021	52.54
1.022	52.34
1.023	52.16
1.024	51.98
1.025	51.80
1.026	51.59
1.027	51.37
1.028	51.16
1.029	50.96
1.030	50.77
1.031	50.57
1.032	50.37
1.033	50.15
1.034	49.92
1.035	49.68
1.036	49.46
1.037	49.29
1.038	49.15
1.039	49.01
1.040	48.84
1.041	48.62
1.042	48.43
1.043	48.37
1.044	48.42
1.045	48.57
1.046	48.82
1.047	49.11
1.048	49.40
1.049	49.71
1.050	50.03
1.051	50.35
1.052	50.69
1.053	51.04
1.054	51.36
1.055	51.66
1.056	51.95
1.057	52.22
1.058	52.48
1.059	52.70
1.060	52.90
1.061	53.06
1.062	53.20
1.063	53.32
1.064	53.42
1.065	53.50
1.066	53.54
1.067	53.54
1.068	53.52
1.069	53.47
1.070	53.42
1.071	53.34
1.072	53.25
1.073	53.13
1.074	52.98
1.075	52.81
1.076	52.61
1.077	52.39
1.078	52.17
1.079	51.95
1.080	51.71
1.081	51.49
1.082	51.29
1.083	51.14
1.084	51.02
1.085	50.96
1.086	50.94
1.087	50.97
1.088	51.01
1.089	51.08
1.090	51.15
1.091	51.22
1.092	51.33
1.093	51.46
1.094	51.62
1.095	51.77
1.096	51.91
1.097	52.03
1.098	52.14
1.099	52.23
1.100	52.29
1.101	52.33
1.102	52.34
1.103	52.34
1.104	52.30
1.105	52.25
1.106	52.18
1.107	52.10
1.108	52.00
1.109	51.89
1.110	51.77
1.111	51.66
1.112	51.55
1.113	51.45
1.114	51.36
1.115	51.29
1.116	51.25
1.117	51.23
1.118	51.22
1.119	51.21
1.120	51.23
1.121	51.26
1.122	51.30
1.123	51.36
1.124	51.43
1.125	51.49
1.126	51.56
1.127	51.62
1.128	51.68
1.129	51.71
1.130	51.71
1.131	51.69
1.132	51.65
1.133	51.62
1.134	51.59
1.135	51.52
1.136	51.41
1.137	51.28
1.138	51.17
1.139	51.07
1.140	50.98
1.141	50.91
1.142	50.85
1.143	50.79
1.144	50.71
1.145	50.67
1.146	50.67
1.147	50.68
1.148	50.70
1.149	50.73
1.150	50.75
1.151	50.77
1.152	50.80
1.153	50.82
1.154	50.83
1.155	50.85
1.156	50.88
1.157	50.89
1.158	50.88
1.159	50.84
1.160	50.78
1.161	50.73
1.162	50.68
1.163	50.65
1.164	50.62
1.165	50.61
1.166	50.59
1.167	50.58
1.168	50.56
1.169	50.54
1.170	50.54
1.171	50.56
1.172	50.62
1.173	50.71
1.174	50.84
1.175	51.00
1.176	51.19
1.177	51.40
1.178	51.62
1.179	51.86
1.180	52.12
1.181	52.40
1.182	52.66
1.183	52.89
1.184	53.10
1.185	53.31
1.186	53.49
1.187	53.65
1.188	53.78
1.189	53.88
1.190	53.94
1.191	53.98
1.192	53.99
1.193	53.97
1.194	53.93
1.195	53.86
1.196	53.79
1.197	53.69
1.198	53.58
1.199	53.47
1.200	53.36
1.201	53.25
1.202	53.15
1.203	53.06
1.204	52.98
1.205	52.91
1.206	52.86
1.207	52.81
1.208	52.77
1.209	52.73
1.210	52.71
1.211	52.70
1.212	52.72
1.213	52.73
1.214	52.69
1.215	52.61
1.216	52.51
1.217	52.40
1.218	52.33
1.219	52.26
1.220	52.20
1.221	52.11
1.222	51.95
1.223	51.73
1.224	51.53
1.225	51.36
1.226	51.25
1.227	51.19
1.228	51.17
1.229	51.20
1.230	51.28
1.231	51.40
1.232	51.56
1.233	51.76
1.234	51.97
1.235	52.21
1.236	52.44
1.237	52.67
1.238	52.86
1.239	53.03
1.240	53.16
1.241	53.27
1.242	53.34
1.243	53.39
1.244	53.39
1.245	53.37
1.246	53.30
1.247	53.18
1.248	53.03
1.249	52.83
1.250	52.60
1.251	52.31
1.252	52.02
1.253	51.73
1.254	51.47
1.255	51.22
1.256	51.00
1.257	50.79
1.258	50.59
1.259	50.41
1.260	50.28
1.261	50.18
1.262	50.12
1.263	50.07
1.264	50.04
1.265	50.02
1.266	50.04
1.267	50.10
1.268	50.22
1.269	50.44
1.270	50.74
1.271	51.09
1.272	51.39
1.273	51.65
1.274	51.85
1.275	52.03
1.276	52.22
1.277	52.41
1.278	52.63
1.279	52.83
1.280	52.99
1.281	53.11
1.282	53.18
1.283	53.23
1.284	53.27
1.285	53.27
1.286	53.20
1.287	53.09
1.288	52.96
1.289	52.81
1.290	52.67
1.291	52.55
1.292	52.42
1.293	52.26
1.294	52.06
1.295	51.85
1.296	51.65
1.297	51.51
1.298	51.40
1.299	51.33
1.300	51.31
1.301	51.28
1.302	51.23
1.303	51.23
1.304	51.30
1.305	51.45
1.306	51.65
1.307	51.88
1.308	52.14
1.309	52.38
1.310	52.59
1.311	52.80
1.312	53.02
1.313	53.21
1.314	53.40
1.315	53.55
1.316	53.66
1.317	53.74
1.318	53.79
1.319	53.81
1.320	53.78
1.321	53.73
1.322	53.63
1.323	53.49
1.324	53.29
1.325	53.08
1.326	52.85
1.327	52.65
1.328	52.45
1.329	52.27
1.330	52.08
1.331	51.91
1.332	51.74
1.333	51.61
1.334	51.50
1.335	51.42
1.336	51.39
1.337	51.41
1.338	51.42
1.339	51.43
1.340	51.44
1.341	51.48
1.342	51.54
1.343	51.61
1.344	51.67
1.345	51.72
1.346	51.75
1.347	51.77
1.348	51.76
1.349	51.74
1.350	51.72
1.351	51.68
1.352	51.62
1.353	51.52
1.354	51.40
1.355	51.26
1.356	51.10
1.357	50.96
1.358	50.80
1.359	50.66
1.360	50.53
1.361	50.41
1.362	50.33
1.363	50.26
1.364	50.17
1.365	50.17
1.366	50.24
1.367	50.30
1.368	50.33
1.369	50.34
1.370	50.33
1.371	50.31
1.372	50.30
1.373	50.32
1.374	50.38
1.375	50.41
1.376	50.41
1.377	50.41
1.378	50.41
1.379	50.42
1.380	50.44
1.381	50.43
1.382	50.39
1.383	50.33
1.384	50.26
1.385	50.18
1.386	50.13
1.387	50.11
1.388	50.07
1.389	50.00
1.390	49.89
1.391	49.78
1.392	49.67
1.393	49.63
1.394	49.59
1.395	49.53
1.396	49.45
1.397	49.35
1.398	49.33
1.399	49.36
1.400	49.43
1.401	49.50
1.402	49.61
1.403	49.73
1.404	49.86
1.405	50.01
1.406	50.18
1.407	50.36
1.408	50.50
1.409	50.61
1.410	50.68
1.411	50.72
1.412	50.74
1.413	50.73
1.414	50.70
1.415	50.65
1.416	50.60
1.417	50.55
1.418	50.47
1.419	50.39
1.420	50.33
1.421	50.29
1.422	50.28
1.423	50.30
1.424	50.36
1.425	50.44
1.426	50.53
1.427	50.63
1.428	50.75
1.429	50.87
1.430	51.00
1.431	51.13
1.432	51.26
1.433	51.38
1.434	51.47
1.435	51.54
1.436	51.58
1.437	51.59
1.438	51.57
1.439	51.53
1.440	51.45
1.441	51.35
1.442	51.24
1.443	51.13
1.444	51.02
1.445	50.92
1.446	50.84
1.447	50.73
1.448	50.61
1.449	50.51
1.450	50.42
1.451	50.37
1.452	50.33
1.453	50.30
1.454	50.29
1.455	50.26
1.456	50.24
1.457	50.24
1.458	50.26
1.459	50.30
1.460	50.35
1.461	50.43
1.462	50.52
1.463	50.64
1.464	50.79
1.465	50.97
1.466	51.17
1.467	51.36
1.468	51.53
1.469	51.72
1.470	51.92
1.471	52.11
1.472	52.28
1.473	52.41
1.474	52.52
1.475	52.59
1.476	52.63
1.477	52.62
1.478	52.56
1.479	52.46
1.480	52.34
1.481	52.21
1.482	52.06
1.483	51.88
1.484	51.68
1.485	51.46
1.486	51.23
1.487	50.98
1.488	50.74
1.489	50.52
1.490	50.33
1.491	50.15
1.492	49.97
1.493	49.83
1.494	49.68
1.495	49.57
1.496	49.49
1.497	49.46
1.498	49.47
1.499	49.52
1.500	49.61
1.501	49.73
1.502	49.88
1.503	50.06
1.504	50.28
1.505	50.54
1.506	50.83
1.507	51.12
1.508	51.37
1.509	51.57
1.510	51.71
1.511	51.83
1.512	51.92
1.513	52.00
1.514	52.08
1.515	52.11
1.516	52.09
1.517	52.05
1.518	51.98
1.519	51.87
1.520	51.73
1.521	51.58
1.522	51.42
1.523	51.25
1.524	51.07
1.525	50.90
1.526	50.74
1.527	50.60
1.528	50.49
1.529	50.40
1.530	50.34
1.531	50.32
1.532	50.33
1.533	50.38
1.534	50.44
1.535	50.52
1.536	50.59
1.537	50.67
1.538	50.73
1.539	50.78
1.540	50.84
1.541	50.95
1.542	51.07
1.543	51.16
1.544	51.20
1.545	51.17
1.546	51.17
1.547	51.23
1.548	51.34
1.549	51.51
1.550	51.74
1.551	52.00
1.552	52.26
1.553	52.50
1.554	52.73
1.555	52.96
1.556	53.18
1.557	53.38
1.558	53.58
1.559	53.74
1.560	53.86
1.561	53.96
1.562	54.04
1.563	54.09
1.564	54.10
1.565	54.09
1.566	54.07
1.567	54.02
1.568	53.96
1.569	53.92
1.570	53.83
1.571	53.69
1.572	53.49
1.573	53.26
1.574	53.03
1.575	52.81
1.576	52.58
1.577	52.33
1.578	52.07
1.579	51.77
1.580	51.47
1.581	51.17
1.582	50.90
1.583	50.71
1.584	50.55
1.585	50.46
1.586	50.43
1.587	50.48
1.588	50.56
1.589	50.66
1.590	50.79
1.591	50.97
1.592	51.20
1.593	51.48
1.594	51.77
1.595	52.00
1.596	52.13
1.597	52.10
1.598	52.09
1.599	52.12
1.600	52.13
1.601	52.05
1.602	51.94
1.603	51.79
1.604	51.50
1.605	51.13
1.606	50.85
1.607	50.73
1.608	50.69
1.609	50.69
1.610	50.67
1.611	50.63
1.612	50.60
1.613	50.63
1.614	50.71
1.615	50.80
1.616	50.90
1.617	51.05
1.618	51.23
1.619	51.41
1.620	51.55
1.621	51.69
1.622	51.84
1.623	52.00
1.624	52.11
1.625	52.22
1.626	52.33
1.627	52.43
1.628	52.53
1.629	52.55
1.630	52.51
1.631	52.48
1.632	52.47
1.633	52.43
1.634	52.40
1.635	52.35
1.636	52.28
1.637	52.19
1.638	52.08
1.639	51.97
1.640	51.88
1.641	51.81
1.642	51.77
1.643	51.73
1.644	51.69
1.645	51.63
1.646	51.60
1.647	51.63
1.648	51.71
1.649	51.83
1.650	51.97
1.651	52.11
1.652	52.28
1.653	52.49
1.654	52.67
1.655	52.86
1.656	53.05
1.657	53.22
1.658	53.39
1.659	53.54
1.660	53.67
1.661	53.84
1.662	53.99
1.663	54.09
1.664	54.18
1.665	54.26
1.666	54.33
1.667	54.39
1.668	54.44
1.669	54.48
1.670	54.48
1.671	54.46
1.672	54.41
1.673	54.34
1.674	54.25
1.675	54.13
1.676	53.97
1.677	53.77
1.678	53.57
1.679	53.35
1.680	53.13
1.681	52.91
1.682	52.68
1.683	52.50
1.684	52.35
1.685	52.27
1.686	52.21
1.687	52.15
1.688	52.12
1.689	52.12
1.690	52.05
1.691	51.96
1.692	51.91
1.693	51.95
1.694	52.03
1.695	52.08
